"data": "{\"type\":\"ecg\",\"data\":\"128,128,128,129,130,131,131,129,128,128,128,128,128,128,128,129,129,128,129,128,128,128,127,126,126,127,127,126,126,126,126,126,125,125,125,125,125,124,125,126,126,126,126,126,125,126,126,126,126,127,127,127,127,128,128,127,127,127,127,127,127,127,128,129,129,128,128,128,127,127,127,127,127,127,128,127,127,128,127,128,128,128,128,127,127,127,127,128,128,127,127,127,127,127,127,127,127,127,126,126,127,127,127,127,127,126,126,126,126,127,128,128,128,128,127,127,127,127,128,128,128,128,128,128,128,127,127,125,124,124,126,126,126,127,127,126,126,126,127,127,127,127,128,129,132,134,134,133,131,126,120,120,118,118,118,121,121,125,128,130,131,131,129,128,129,129,129,129,129,128,128,128,126,127,126,126,126,127,127,126,127,127,127,127,127,127,127,128,127,128,128,128,127,128,127,128,128,128,128,128,128,128,128,128,128,128,128,128,128,128,128,128,128,127,127,126,126,125,126,125,125,125,125,125,126,125,125,126,125,125,126,126,126,127,127,127,127,127,127,126,127,127,127,128,128,128,128,128,127,128,128,128,127,128,128,127,127,128,128,127,127,127,127,127,127,127,127,127,126,126,127,127,127,127,128,127,127,127,127,127,127,127,127,128,127,126,126,127,127,127,127,127,127,127,127,128,128,127,128,127,127,127,128,127,128,127,127,126,126,126,126,126,126,126,126,127,127,127,126,126,126,126,127,129,131,134,134,133,131,126,121,121,119,117,118,121,121,124,128,131,131,131,131,130,128,128,128,127,128,127,128,128,127,127,127,127,127,127,127,127,127,127,126,126,126,127,127,128,128,128,128,128,128,128,128,128,128,127,128,128,128,128,128,127,126,127,127,127,127,127,127,127,127,126,126,126,126,126,126,126,125,125,126,127,125,126,126,126,125,127,127,127,127,127,127,126,126,127,128,128,128,128,128,128,128,128,128,127,128,127,127,127,127,127,127,127,127,127,127,127,127,127,127,127,127,126,126,127,126,127,126,126,126,127,127,127,127,128,127,128,128,128,128,128,127,127,127,127,127,128,127,127,127,127,127,127,127,127,127,127,128,128,127,127,128,126,126,126,126,125,126,126,127,126,126,125,125,125,125,126,128,128,130,132,133,133,133,131,127,122,118,118,118,118,121,124,124,127,130,131,131,131,130,129,129,129,129,128,128,128,128,128,128,128,128,127,127,127,127,126,127,127,127,127,127,127,127,127,128,128,128,128,128,128,127,128,128,128,127,128,127,127,128,128,128,128,128,127,127,127,126,126,126,126,125,126,126,126,126,126,125,125,125,125,125,126,126,126,126,127,127,127,127,127,127,126,126,127,128,128,128,128,127,127,128,128,128,128,128,127,127,127,128,128,128,127,127,127,127,127,127,127,126,127,127,127,127,128,127,127,127,127,126,126,126,126,126,126,127,127,127,127,128,128,127,128,128,127,127,127,127,127,128,128,128,128,128,127,127,126,125,125,126,125,127,127,127,126,127,127,127,127,127,128,130,130,131,133,133,131,128,127,122,119,119,119,119,122,125,128,130,130,131,131,129,128,128,127,127,128,128,128,128,128,128,127,127,128,127,127,127,127,126,126,127,127,127,127,127,127,127,127,127,127,128,128,128,128,128,128,127,127,127,128,128,128,128,128,127,128,127,127,127,127,126,127,127,126,126,126,124,124,124,124,124,125,125,125,125,126,126,126,126,127,127,127,127,128,128,128,127,127,127,127,127,127,127,127,127,128,128,128,127,127,127,127,127,127,128,127,127,127,127,127,127,127,127,127,127,127,127,127,128,126,127,127,127,126,127,126,126,126,126,126,126,126,126,127,129,128,128,128,128,127,128,128,128,127,127,128,127,127,127,126,125,126,126,126,127,128,127,127,127,127,127,127,127,126,127,128,130,132,134,134,132,129,127,123,119,119,119,119,121,124,127,130,130,131,131,132,130,129,129,128,127,127,127,126,126,127,126,126,127,127,127,127,127,127,127,128,129,129,128,128,128,127,127,128,128,128,128,128,128,128,128,127,127,128,127,128,129,129,128,128,128,127,127,127,126,125,125,125,126,126,126,125,125,125,125,126,126,126,126,126,126,127,127,127,127,127,126,126,127,128,128,129,129,128,127,127,126,127,126,126,126,126,126,126,127,127,127,127,126,127,126,127,127,127,127,127,128,128,127,126,127,126,126,125,125,125,125,126,126,126,126,126,126,126,126,126,126,126,126,126,127,128,128,128,128,128,\"}"
"data": "{\"type\":\"ecg\",\"data\":\"128,128,129,129,127,128,128,127,127,128,127,128,128,128,128,128,128,127,127,126,127,126,126,126,126,127,127,127,127,127,127,127,127,126,127,128,129,130,132,135,135,134,132,127,121,118,118,117,117,120,125,125,128,131,132,131,131,130,129,128,128,127,127,128,128,127,128,127,127,128,128,128,128,128,128,127,127,127,127,127,127,128,128,128,128,128,128,127,127,127,128,127,128,128,128,128,128,128,128,128,128,127,128,127,127,128,127,126,126,126,125,125,125,124,124,125,125,125,125,126,127,127,127,127,127,126,127,127,127,127,127,127,127,127,127,127,127,128,128,128,129,128,128,128,127,126,127,127,127,127,128,128,128,128,128,127,127,128,128,127,128,127,126,126,126,126,126,127,126,126,127,126,127,127,128,127,127,127,127,126,127,127,128,127,127,126,126,126,126,128,127,127,127,126,126,127,127,127,128,128,128,128,128,128,128,127,127,127,127,127,128,129,129,128,128,127,126,126,126,126,127,127,127,127,126,126,125,125,126,126,127,127,128,129,131,133,136,135,134,132,126,123,120,118,117,118,118,122,125,129,131,131,131,130,128,129,128,128,127,128,127,128,128,128,127,128,127,127,127,127,127,128,128,128,128,127,127,128,128,128,129,129,129,127,127,127,128,127,128,128,128,127,128,128,128,129,128,128,127,127,126,126,126,126,126,126,126,126,124,124,124,124,123,124,125,126,127,127,127,127,127,127,128,129,128,127,128,127,126,127,128,128,128,127,127,127,127,127,128,128,128,128,127,127,127,128,129,129,128,128,127,127,127,126,126,126,126,126,126,127,127,127,127,128,128,127,128,127,127,127,128,127,128,128,127,127,128,128,126,126,126,126,126,127,128,128,128,128,128,128,128,127,127,127,127,127,126,127,127,126,127,127,127,127,127,127,127,128,128,128,129,129,128,127,127,125,125,125,126,126,127,128,127,127,126,126,126,127,127,127,129,130,131,133,134,133,131,127,122,118,116,116,117,120,123,127,129,131,131,132,131,129,129,129,128,128,128,128,128,128,128,128,129,127,127,127,127,126,126,127,127,127,127,128,127,128,127,127,128,129,129,129,130,129,129,128,127,127,128,127,129,130,128,128,127,126,125,126,126,126,126,126,126,126,126,125,124,125,124,124,124,125,125,125,125,127,126,126,127,128,127,128,128,127,127,127,128,128,128,127,127,128,128,127,128,128,127,127,127,128,128,128,129,129,128,128,128,127,127,127,127,127,127,127,126,126,127,126,126,125,126,126,126,127,128,127,127,128,127,127,127,127,127,127,126,127,126,127,127,127,126,127,127,127,128,128,128,128,128,128,128,128,128,128,128,128,128,129,130,129,127,127,127,125,125,126,127,125,126,126,126,126,127,128,127,128,128,130,130,131,133,133,131,130,127,121,119,118,117,117,120,121,124,127,130,132,132,132,130,130,129,129,129,129,129,128,128,128,127,126,127,126,126,126,127,127,127,128,129,128,128,128,127,127,127,128,128,128,128,128,128,129,129,128,128,127,127,128,129,129,129,128,128,128,128,127,127,126,126,126,126,126,125,124,123,123,123,124,125,126,126,126,126,126,127,127,127,126,127,127,127,128,129,127,128,129,128,127,128,127,126,127,128,127,127,128,128,128,129,129,128,127,127,127,127,128,128,128,127,127,127,126,126,126,127,127,127,127,127,127,126,126,126,128,127,127,127,127,126,126,127,127,127,127,127,127,127,126,127,126,126,127,127,127,127,127,127,127,128,128,128,128,128,128,129,128,129,128,127,126,127,126,126,126,126,126,125,126,126,126,126,126,127,126,127,127,127,128,129,130,132,134,133,132,129,124,120,119,117,116,118,120,122,125,128,130,131,131,131,131,131,129,129,128,128,128,128,128,128,128,127,128,127,127,127,126,127,127,127,128,128,128,128,128,127,128,129,128,128,128,128,129,129,129,128,128,127,127,127,128,128,128,128,127,127,127,126,126,126,126,125,126,126,126,125,125,124,124,125,125,126,126,127,127,127,127,127,126,126,126,126,126,126,127,128,128,127,127,127,127,127,127,128,128,128,128,128,128,128,128,128,128,128,127,127,127,127,127,128,127,128,127,127,127,128,127,127,127,127,126,126,126,126,126,126,127,128,128,128,128,128,127,127,127,127,127,127,127,127,127,127,127,126,126,127,127,127,128,127,127,128,128,127,126,126,127,127,127,127,127,127,127,126,126,125,125,125,125,125,126,125,126,126,126,125,128,128,128,128,128,\"}"
"data": "{\"type\":\"ecg\",\"data\":\"130,131,134,135,133,132,129,125,121,119,116,117,117,119,122,127,130,131,130,130,130,130,129,129,129,128,128,129,128,128,128,127,128,127,126,127,128,127,127,128,128,128,127,127,127,128,128,128,129,129,129,128,128,128,128,127,127,128,128,129,130,130,130,129,128,127,127,127,126,126,125,125,125,125,125,126,126,126,125,125,125,125,125,126,127,126,127,127,127,128,127,127,127,127,127,128,129,128,128,127,127,126,127,127,127,127,127,127,128,128,128,128,128,128,128,127,127,127,127,127,127,127,127,128,127,127,127,126,126,127,127,127,127,127,127,127,127,126,126,127,127,128,128,127,127,127,127,127,127,127,127,127,127,127,127,127,127,127,127,127,128,127,127,127,127,128,128,128,128,128,128,127,128,126,125,125,125,125,126,126,127,127,127,126,126,126,127,127,128,129,130,132,134,134,132,131,125,123,120,118,117,119,119,122,126,130,131,131,131,130,129,129,129,129,128,129,128,128,127,127,127,127,127,127,127,127,127,127,128,127,127,127,127,127,127,127,127,128,128,128,128,128,127,128,128,127,128,127,127,126,128,128,128,128,128,127,128,127,127,127,127,125,125,125,124,125,126,126,125,126,126,125,125,126,127,127,127,127,128,127,127,127,127,127,127,127,127,127,127,127,127,127,127,127,127,127,127,128,128,128,128,128,127,127,127,126,127,127,127,127,127,126,126,127,127,127,127,127,128,127,128,127,127,128,128,127,127,127,126,126,127,127,127,127,128,128,127,127,126,126,127,127,127,128,128,128,128,128,128,127,128,127,127,127,128,127,127,127,127,126,126,125,125,126,126,127,127,127,127,127,127,127,127,128,128,129,132,133,134,132,130,125,124,120,119,118,118,118,122,125,128,131,132,132,130,130,129,129,128,128,128,127,127,127,127,127,127,127,126,127,127,126,127,128,127,126,127,126,126,127,128,128,128,128,128,127,128,128,128,127,127,127,127,127,128,128,128,128,128,128,127,128,127,127,126,127,126,126,126,125,125,125,125,124,125,125,125,125,126,126,127,127,127,127,127,127,127,128,128,128,127,128,127,127,127,127,127,127,127,128,128,128,128,128,128,127,127,127,127,127,128,128,128,128,128,128,127,127,127,127,126,127,127,127,126,127,127,127,127,126,126,127,127,127,127,127,127,127,127,127,128,127,127,126,126,126,127,127,127,128,128,128,128,128,128,127,127,127,126,126,127,126,126,127,127,127,127,127,127,127,128,129,129,130,131,132,133,133,130,127,121,118,118,117,117,120,123,124,127,130,131,132,131,130,129,129,128,128,128,128,128,128,128,127,126,126,126,126,126,127,128,129,129,129,129,129,128,128,127,127,127,127,127,128,127,127,126,126,127,128,128,128,128,129,128,128,128,128,127,127,127,127,127,126,125,126,125,125,126,125,124,124,124,124,125,126,126,126,127,127,127,127,127,126,126,127,128,128,128,128,128,128,128,128,127,128,128,128,128,128,127,127,127,127,127,128,127,127,127,127,126,127,127,126,126,126,127,127,127,128,127,127,127,128,127,127,127,127,126,125,126,126,126,126,127,127,128,128,127,128,127,127,127,127,128,127,128,128,128,128,128,128,128,127,127,127,126,126,126,127,127,127,127,127,126,126,126,126,126,128,128,129,129,132,133,133,131,131,125,121,118,117,117,120,123,126,129,129,130,130,130,130,130,129,128,127,126,126,126,127,128,128,128,127,127,127,127,127,127,127,127,127,127,127,127,127,127,127,127,128,128,128,128,128,127,128,128,128,128,129,129,128,128,128,128,127,127,127,126,126,126,126,126,125,126,126,126,126,126,125,125,125,125,125,126,127,126,126,126,126,127,127,127,127,127,127,127,127,128,128,128,128,128,128,127,128,127,127,127,128,127,127,127,128,127,128,127,127,127,127,126,127,127,127,127,127,126,126,126,126,127,127,127,127,127,126,127,127,127,127,127,127,127,127,127,127,127,127,127,127,127,128,128,129,128,127,127,127,127,127,128,129,129,128,129,128,126,126,126,126,126,126,126,127,126,126,127,127,126,127,127,127,127,129,130,133,134,134,132,129,123,119,119,118,119,119,122,122,126,128,130,130,130,129,129,129,129,129,129,129,128,128,128,127,126,127,127,127,127,127,127,127,127,127,127,127,127,127,127,127,128,128,128,127,128,128,128,128,128,127,128,128,128,128,128,127,128,128,127,127,127,127,127,126,126,126,126,126,126,125,125,125,125,125,125,128,128,128,128,128,\"}"
"data": "{\"type\":\"ecg\",\"data\":\"124,124,124,125,125,126,127,127,127,126,126,126,126,126,126,126,126,126,126,126,126,127,127,127,127,127,127,127,127,126,127,127,127,127,126,127,127,127,127,128,127,128,128,127,128,128,127,127,127,127,127,126,126,126,126,126,127,127,127,127,127,127,127,127,127,128,127,127,126,127,126,126,126,127,127,127,127,127,127,127,128,128,128,127,128,127,127,127,127,126,126,126,126,126,127,126,127,127,127,127,128,128,128,130,131,133,134,134,132,128,122,118,118,116,116,119,122,122,126,130,131,130,130,129,129,129,129,129,129,129,128,128,128,128,128,127,127,127,125,124,125,126,126,127,128,128,128,128,129,128,128,128,128,127,128,128,127,127,128,127,127,128,128,128,128,128,128,128,128,128,128,127,127,126,126,126,126,126,126,126,126,125,125,125,125,125,126,126,126,127,128,127,127,126,127,126,127,127,128,127,127,127,127,127,126,126,126,126,126,127,127,128,128,128,127,128,128,128,128,128,128,127,127,127,128,127,127,127,127,126,127,127,127,126,127,127,127,127,127,127,128,127,127,127,127,127,126,126,127,126,126,127,127,127,127,126,127,127,127,127,127,127,127,127,128,128,128,128,128,127,128,128,128,128,129,128,128,128,128,128,128,127,127,126,126,126,127,127,127,128,126,126,126,126,126,127,128,128,130,131,132,133,133,129,125,120,117,117,117,119,121,124,124,127,129,131,131,131,130,128,128,128,128,127,129,129,129,129,128,128,127,127,127,127,127,127,127,127,127,127,127,127,127,127,127,128,128,128,128,128,128,128,128,128,128,128,128,128,128,127,128,127,127,127,127,127,126,126,126,126,126,125,125,125,126,126,126,126,126,125,125,125,125,125,126,127,127,127,126,127,127,127,127,127,127,127,128,128,127,127,128,128,128,129,129,128,128,128,128,127,128,127,127,127,127,127,126,126,127,127,127,128,128,127,127,127,126,126,127,127,127,127,127,126,127,127,127,127,127,126,126,126,126,126,126,127,127,127,127,128,127,128,128,128,127,127,127,127,128,129,129,129,129,129,127,126,126,126,126,127,127,127,127,127,126,126,126,126,127,128,128,129,129,130,131,132,131,131,126,121,118,116,116,118,121,124,127,127,129,130,131,131,131,130,129,128,128,128,128,128,127,127,127,128,128,128,126,126,127,126,126,127,127,127,127,127,127,127,127,127,128,128,128,127,128,128,127,127,128,127,127,128,128,127,128,128,129,129,129,128,127,126,126,126,126,126,126,126,125,125,125,125,125,125,125,125,125,125,127,127,127,127,127,127,127,127,127,127,127,127,126,127,127,127,128,128,128,128,127,127,126,127,127,126,126,127,127,127,128,128,128,128,128,127,127,127,128,128,127,128,127,126,126,126,126,127,127,127,127,127,127,128,128,127,127,127,127,127,127,128,127,126,126,126,125,125,127,127,127,127,127,127,127,127,127,128,127,127,128,128,128,128,128,127,126,125,126,126,127,127,128,127,127,126,126,127,127,127,129,130,131,133,133,131,129,127,121,121,120,118,117,119,119,121,126,130,131,131,131,129,129,129,129,129,129,128,128,128,128,128,127,127,127,126,126,126,126,126,127,127,128,128,128,128,129,129,129,129,129,128,128,129,129,128,128,127,127,127,127,127,128,128,128,127,127,128,128,128,127,126,126,125,125,124,125,125,125,125,126,125,125,125,125,125,126,126,127,127,127,128,127,128,128,127,126,127,127,127,127,127,127,127,127,128,128,127,127,127,127,128,128,128,128,128,127,127,126,126,127,127,127,127,127,127,127,127,127,127,127,127,128,128,128,127,127,126,126,126,127,127,126,127,127,127,127,128,128,128,128,128,127,127,127,126,126,126,126,126,127,128,128,128,128,128,128,128,128,128,128,128,128,128,128,128,128,127,127,127,126,127,126,126,126,126,125,126,126,126,127,128,129,130,130,132,133,132,130,130,124,119,117,116,116,119,123,126,129,129,130,130,131,130,130,129,129,128,129,129,128,128,127,128,128,127,127,127,126,126,126,126,127,127,127,128,127,127,127,127,127,128,127,128,128,127,126,128,128,128,128,129,128,128,128,128,127,128,128,128,128,127,126,126,126,126,126,127,125,125,124,125,124,125,125,126,126,126,127,127,126,126,126,126,126,126,126,126,127,127,127,127,128,127,127,127,128,129,129,129,128,128,127,128,128,128,128,128,129,129,129,128,128,128,128,127,128,128,129,129,129,129,129,128,128,128,128,128,128,128,128,128,\"}"
"data": "{\"type\":\"ecg\",\"data\":\"126,125,125,125,125,125,125,125,125,125,126,127,127,125,126,127,126,126,127,127,127,127,127,127,127,128,128,128,126,126,125,126,126,126,126,127,127,127,127,127,127,127,127,128,129,130,132,132,132,130,127,123,123,120,119,119,120,120,124,127,130,131,131,131,130,130,129,129,129,129,128,128,128,128,127,127,127,127,127,127,127,127,127,127,127,127,127,127,128,128,129,128,128,128,128,128,127,127,128,127,127,128,128,127,128,128,128,128,128,127,127,127,127,127,128,127,127,127,126,124,125,124,124,125,125,125,126,126,126,126,126,126,126,126,126,128,127,127,127,127,127,128,128,128,128,128,127,127,127,128,127,127,127,128,127,126,127,127,126,127,127,127,127,127,128,128,128,128,128,128,127,128,128,127,127,128,127,127,127,127,127,127,127,127,127,127,127,127,126,127,126,127,127,127,127,128,128,128,128,128,128,128,128,127,128,127,127,127,127,126,126,126,126,126,125,126,125,125,125,127,127,128,128,128,129,130,132,132,133,130,127,122,122,118,117,118,120,120,124,127,130,132,132,131,130,129,129,129,129,130,128,128,128,127,126,128,128,128,128,128,128,127,127,127,126,126,127,127,127,127,127,128,128,127,127,127,127,127,127,127,128,128,128,128,128,128,127,127,127,127,127,126,126,126,126,125,125,125,125,126,125,126,126,126,125,126,126,126,126,127,126,127,127,127,128,128,127,127,127,127,127,127,127,127,127,127,127,127,126,127,127,127,127,128,128,128,128,128,127,127,127,127,127,127,127,127,127,127,128,127,127,127,127,127,127,127,127,127,126,127,127,127,127,127,126,126,126,126,126,127,127,127,127,128,128,127,127,127,127,128,128,128,128,128,128,128,127,127,127,126,125,125,125,125,125,126,126,126,127,127,126,126,126,126,128,129,131,131,133,132,131,127,126,122,120,117,118,118,121,125,128,131,131,131,130,129,129,129,129,128,129,128,128,127,127,128,127,127,127,127,127,128,128,128,127,127,128,128,128,128,128,127,127,128,128,128,128,128,127,127,128,128,128,129,129,128,127,127,127,127,127,128,128,127,127,126,126,126,125,125,126,125,125,125,125,125,125,125,124,125,125,126,126,127,127,127,128,128,127,127,128,127,127,127,127,126,126,126,126,127,127,127,127,127,127,127,127,127,127,127,127,128,128,128,128,128,127,127,127,127,127,127,127,127,127,127,127,127,127,127,126,127,127,126,126,127,127,127,127,128,128,128,128,128,127,127,127,127,128,128,129,128,128,128,127,126,125,125,125,125,126,127,127,127,127,126,126,126,126,127,128,130,130,133,133,132,129,129,123,121,119,118,118,120,123,126,130,130,131,130,130,129,129,129,129,128,128,128,127,127,127,127,127,127,127,128,128,128,128,127,127,127,127,127,127,128,128,128,127,128,127,128,128,128,128,127,127,127,127,128,128,127,127,127,127,128,127,127,127,126,126,126,126,125,125,125,125,125,125,125,125,126,126,126,126,127,127,127,127,127,126,126,126,126,127,128,128,128,128,128,127,128,128,127,127,127,127,127,128,128,128,128,128,126,127,126,126,126,128,127,128,128,128,127,127,127,127,127,127,127,127,127,127,127,127,128,127,127,127,127,126,128,128,128,128,128,128,128,127,127,127,128,128,128,127,127,127,127,126,126,126,126,126,126,126,126,126,126,126,126,126,127,127,129,129,132,133,133,131,129,126,120,120,119,118,119,122,122,125,127,130,131,131,130,130,128,129,129,128,128,129,128,128,128,127,127,128,128,127,128,128,127,127,127,127,128,127,127,128,127,128,129,129,127,127,126,126,126,128,128,128,128,128,128,128,127,127,127,127,126,127,127,127,126,127,126,125,125,125,124,124,125,125,125,125,126,125,125,126,127,126,127,127,127,127,127,128,128,128,128,128,127,127,128,127,128,127,127,126,127,127,127,127,128,127,127,128,128,126,127,127,126,126,127,127,128,127,127,127,127,127,127,127,127,127,126,127,127,128,128,128,128,128,127,127,127,128,128,129,129,127,126,126,126,126,126,127,127,126,126,127,127,127,127,126,125,126,126,126,127,128,129,129,131,132,132,130,130,126,121,117,117,117,118,122,125,127,127,130,131,131,130,130,129,128,128,128,128,128,128,127,127,127,128,127,128,127,127,127,127,127,127,127,127,127,128,129,129,129,129,128,128,128,128,128,128,129,129,129,129,128,128,128,128,128,128,128,128,129,128,128,128,128,127,126,128,128,128,128,128,\"}"
"data": "{\"type\":\"ecg\",\"data\":\"127,128,128,127,126,126,126,126,126,127,128,129,129,128,128,127,127,127,127,127,128,129,129,128,129,129,128,128,129,127,127,128,128,127,128,128,127,127,127,127,127,127,127,127,127,128,127,127,127,127,126,126,126,126,126,127,127,127,128,127,128,128,128,128,128,128,127,127,127,127,126,127,127,127,127,127,126,126,126,126,126,126,126,126,126,127,127,127,127,127,128,128,128,131,133,133,131,131,126,121,117,117,117,119,122,126,128,128,131,132,130,130,130,129,128,128,128,128,128,128,128,128,128,128,127,127,127,127,127,127,127,127,127,127,126,126,127,127,128,128,128,128,128,128,128,127,127,127,127,127,128,128,128,128,127,127,127,127,126,126,125,125,125,125,125,126,126,126,126,126,125,125,125,126,126,126,127,127,127,128,128,127,127,127,127,127,127,127,127,128,127,127,127,127,127,127,127,127,128,127,128,127,127,127,128,127,127,127,127,126,127,127,127,127,127,127,127,127,127,127,127,127,127,127,128,128,127,127,127,127,127,127,127,127,127,127,127,127,127,127,128,128,128,127,127,127,127,127,127,127,127,126,126,126,127,125,126,126,126,126,127,127,127,128,129,131,134,135,134,133,128,122,121,119,117,118,121,121,124,126,129,130,130,129,128,127,127,127,128,128,128,128,128,128,129,129,128,128,128,127,127,127,127,127,127,127,126,126,126,127,127,128,128,128,128,129,128,128,127,128,128,128,128,128,128,128,128,128,128,128,128,128,128,127,126,126,125,125,125,125,125,125,125,125,126,126,126,126,126,126,126,127,127,128,127,127,127,127,126,126,127,127,127,127,128,127,128,128,127,127,127,128,128,128,128,128,127,127,126,126,126,126,126,128,127,127,127,127,127,128,127,127,127,127,126,127,128,128,126,126,126,125,125,126,126,126,126,126,126,127,127,128,128,128,128,128,128,128,128,128,128,128,128,128,128,127,126,126,126,127,126,127,127,127,127,127,126,126,126,126,126,128,128,130,132,134,134,134,131,127,122,118,118,117,118,121,125,126,128,131,131,130,129,129,128,128,128,128,127,128,128,127,127,128,127,127,127,127,128,128,127,128,128,127,127,128,127,127,128,128,128,128,128,128,127,128,127,128,127,127,127,127,127,128,128,128,128,128,127,128,127,126,126,126,126,126,126,126,125,125,125,125,125,125,125,126,126,126,127,127,127,128,128,128,128,127,127,127,127,127,128,128,128,128,128,127,128,128,127,127,127,127,128,127,127,127,128,127,127,127,127,126,127,127,127,127,127,126,126,127,127,127,127,127,128,128,127,127,128,127,126,127,127,126,127,128,127,127,127,127,126,128,128,128,129,128,127,128,127,126,126,126,126,126,126,126,127,127,127,127,127,126,127,128,128,129,131,131,132,131,130,129,128,122,119,118,118,118,120,124,127,130,131,133,133,132,130,129,128,128,128,128,128,127,127,127,127,127,127,127,127,127,127,127,127,128,127,127,127,128,127,128,128,128,128,128,128,128,128,128,128,128,128,128,127,127,127,127,128,128,128,127,127,127,127,127,127,126,125,125,125,125,125,126,125,124,125,125,125,126,127,127,127,127,127,127,127,127,127,127,127,127,127,127,128,127,128,128,128,128,127,127,128,128,127,128,128,128,127,127,128,128,128,128,128,127,126,126,126,126,126,126,127,127,127,128,128,128,128,127,127,127,127,128,127,126,126,126,125,127,127,128,128,128,128,127,127,128,127,128,128,127,128,128,128,128,127,127,126,126,127,127,126,127,127,127,126,127,126,127,127,128,129,130,130,132,134,134,131,129,124,119,118,117,117,119,122,123,126,129,130,131,131,131,131,130,129,128,128,127,127,127,127,127,127,127,128,127,128,128,127,127,127,126,128,128,128,128,128,127,128,128,129,129,129,129,128,129,128,128,128,128,128,127,128,128,128,128,128,128,128,127,127,126,126,126,126,126,126,126,125,125,124,124,124,125,125,126,126,126,127,127,126,127,127,127,127,127,127,127,127,128,127,127,127,128,128,128,129,128,127,127,126,126,127,127,127,128,128,128,128,128,127,128,128,128,128,128,128,127,127,127,126,125,126,127,127,127,128,127,127,127,127,127,127,126,127,127,127,127,127,127,127,127,127,127,127,126,127,127,127,127,127,127,128,129,129,129,128,128,127,127,127,127,127,127,127,126,125,125,125,125,126,126,128,128,129,131,131,133,134,133,131,128,122,119,117,117,117,119,122,126,129,131,131,128,128,128,128,128,\"}"
"data": "{\"type\":\"ecg\",\"data\":\"129,129,129,129,128,129,129,130,129,129,129,129,130,130,128,128,128,128,128,129,129,128,128,128,127,127,129,129,128,128,128,128,129,129,129,129,129,130,130,129,129,129,129,128,129,127,127,125,125,124,124,124,124,124,124,124,125,126,126,125,125,125,126,127,127,127,127,127,128,127,127,128,127,128,128,127,127,128,127,127,127,128,127,128,128,129,127,127,127,127,126,127,127,127,127,127,127,127,127,127,127,127,128,127,127,127,127,128,128,128,127,127,126,127,127,126,127,127,127,127,127,127,127,126,127,127,128,127,127,127,127,126,127,127,127,127,127,128,128,128,129,128,128,128,128,127,127,127,126,126,126,126,126,127,126,126,126,126,127,127,127,128,130,130,133,135,135,133,131,127,121,118,117,116,117,120,123,126,128,131,131,131,131,130,130,130,130,129,129,129,128,128,128,128,127,127,126,126,126,125,126,126,126,126,127,126,127,127,127,127,127,128,128,128,128,128,127,127,127,127,127,127,128,128,128,128,128,128,128,128,128,129,128,128,127,126,125,125,124,124,125,124,124,125,125,125,126,127,127,127,127,127,127,127,126,127,127,127,128,128,127,127,127,127,127,128,128,129,129,128,129,128,128,128,128,127,127,127,128,127,127,127,127,126,127,127,127,127,127,127,127,127,127,127,127,126,126,126,126,126,127,127,127,127,127,126,126,126,125,126,126,126,127,128,128,128,129,129,129,128,128,127,128,128,128,128,128,129,127,127,126,126,125,126,126,127,127,128,127,127,127,127,126,126,127,127,127,129,130,133,135,135,132,129,124,119,117,116,116,117,120,124,127,130,132,132,131,130,129,128,129,129,129,129,129,128,128,128,127,127,127,127,127,127,127,127,128,128,128,128,127,127,126,126,128,128,127,128,128,127,128,129,128,127,127,127,127,128,128,129,129,128,128,128,127,128,127,127,126,126,125,125,125,125,125,125,125,125,125,126,126,126,126,126,126,126,127,126,127,128,127,127,127,127,126,127,128,127,127,127,127,127,128,128,127,127,127,128,127,129,128,128,127,127,127,127,128,128,127,127,127,127,128,128,128,127,126,126,126,126,127,127,127,128,128,128,128,127,128,128,127,127,128,127,127,128,127,126,127,128,128,129,129,128,128,127,126,125,126,125,126,126,127,126,127,126,126,126,127,127,127,127,128,130,131,133,132,130,128,125,121,118,118,117,118,121,125,128,130,132,132,132,131,130,130,130,130,129,128,127,126,126,127,127,127,126,127,128,128,128,129,128,127,128,128,127,128,128,128,127,128,128,127,128,128,127,126,126,126,127,128,127,128,128,128,129,128,128,128,128,126,126,127,127,126,127,126,124,124,124,124,124,125,126,125,125,126,126,125,126,127,127,128,128,127,127,127,127,127,127,127,128,127,127,128,128,128,128,129,129,128,127,128,127,127,127,128,127,127,128,128,128,128,128,128,127,127,128,127,127,127,126,125,127,126,127,127,127,127,127,127,127,127,127,128,127,127,127,127,128,128,128,128,127,126,126,127,127,128,128,128,127,127,127,126,125,126,126,126,127,127,126,126,126,125,126,126,127,129,130,132,134,135,133,132,128,122,118,117,116,117,119,123,125,128,130,131,131,130,130,129,129,129,128,128,128,128,127,127,127,127,127,127,127,127,127,128,128,128,128,128,128,128,129,128,128,128,128,128,129,128,128,128,127,127,127,128,128,128,128,129,128,129,128,127,127,127,126,126,127,126,125,125,125,124,125,125,124,125,125,125,126,126,126,126,127,127,127,128,128,128,128,127,127,127,127,126,127,127,126,127,127,128,128,128,127,127,128,128,128,128,127,127,127,128,128,128,128,127,127,127,127,127,128,127,127,127,127,127,127,126,126,126,127,127,127,127,126,125,127,128,128,129,129,128,128,128,128,128,128,128,127,127,127,126,126,127,126,126,126,126,125,126,126,125,126,126,126,126,127,128,130,131,134,136,135,132,129,126,121,120,118,117,117,120,123,127,130,131,131,130,129,128,127,128,127,128,129,128,128,128,128,128,127,127,127,126,127,127,127,128,128,127,127,127,127,127,128,128,128,128,128,128,129,128,128,128,128,128,128,128,128,128,127,128,128,127,127,127,127,126,126,126,126,126,125,125,125,125,125,125,125,126,126,126,126,127,126,126,126,126,126,127,127,126,126,126,126,127,127,127,128,127,126,127,126,125,126,126,125,126,126,126,126,126,126,127,128,127,126,126,126,125,126,126,128,128,128,128,128,\"}"
"data": "{\"type\":\"ecg\",\"data\":\"125,126,126,125,125,125,125,126,126,125,125,125,126,126,125,125,127,127,127,127,127,127,128,128,128,129,128,128,128,126,125,126,126,126,127,127,127,128,128,127,126,126,125,126,126,128,129,131,132,134,133,132,129,127,122,120,118,117,117,120,124,127,130,131,132,132,130,129,128,128,128,129,129,130,128,127,126,127,126,127,128,128,127,127,127,126,126,126,127,127,127,128,128,127,127,128,128,128,128,128,128,128,128,128,129,128,128,127,127,126,127,126,127,127,127,127,127,126,126,125,125,125,125,125,126,126,126,126,126,125,125,125,126,126,127,127,128,128,128,128,128,128,128,128,127,127,128,128,128,127,128,127,126,127,127,127,127,128,128,128,128,128,128,127,127,127,127,127,127,126,127,126,126,126,127,127,127,127,127,127,127,128,128,128,129,128,127,128,128,127,128,128,127,127,127,126,126,127,127,127,126,126,126,126,126,126,127,127,127,126,127,128,128,128,128,128,129,130,131,133,133,131,127,126,122,119,118,119,119,122,125,128,130,130,131,132,130,130,129,129,128,128,128,128,127,127,127,127,127,127,127,126,126,126,126,126,127,127,127,128,128,128,128,128,128,129,128,128,128,128,127,127,128,128,129,129,129,128,128,127,126,126,126,126,126,126,127,126,126,126,126,126,125,125,125,125,124,125,125,125,126,126,126,126,126,126,127,128,128,127,127,127,127,127,128,128,127,128,128,128,129,128,128,128,127,127,128,128,128,128,128,127,127,127,127,126,127,127,127,127,127,127,127,127,126,126,126,125,125,126,127,126,126,126,126,126,126,126,126,126,127,127,128,128,128,128,128,128,128,128,129,129,129,129,128,127,126,126,126,127,127,127,126,126,126,127,127,127,127,127,126,128,130,130,133,134,132,130,129,123,119,117,116,116,119,122,125,128,129,131,130,130,130,129,129,129,129,129,129,129,129,128,128,128,128,128,128,128,128,127,127,126,127,127,127,127,128,128,128,128,128,128,127,127,127,127,127,128,128,128,128,127,127,127,126,128,128,128,128,127,127,126,126,126,126,125,125,125,125,126,126,125,125,125,125,125,126,127,127,127,126,126,127,127,127,127,127,127,127,127,127,128,128,128,127,128,127,128,128,128,128,128,128,128,127,127,128,128,128,128,129,128,128,128,127,126,126,127,127,128,128,127,127,127,127,126,127,127,127,126,127,126,126,126,127,128,128,128,128,128,128,127,127,127,128,128,127,127,127,127,127,127,127,127,126,126,126,126,126,125,126,126,126,126,127,128,128,130,130,132,133,133,132,132,126,121,118,116,116,117,121,126,129,129,131,130,129,129,129,128,128,127,127,127,127,127,128,128,128,128,127,127,127,127,127,128,128,128,128,127,127,127,127,127,127,127,128,128,128,128,128,128,128,128,128,128,129,128,128,127,127,127,128,128,127,127,127,126,126,126,125,125,125,125,126,126,126,126,126,126,126,126,127,127,128,127,126,126,126,126,126,127,126,126,126,127,127,127,127,127,127,127,127,127,128,128,129,128,128,128,128,127,127,127,127,127,127,127,127,127,127,127,127,127,127,126,126,126,126,127,128,127,127,127,127,126,127,127,127,127,127,127,128,128,127,128,127,126,126,127,127,128,127,127,127,128,128,127,127,128,128,127,126,126,125,125,126,127,127,127,127,127,126,126,127,127,127,127,127,128,130,133,134,134,132,128,123,119,119,117,117,119,123,123,127,130,130,129,129,128,128,129,129,129,129,129,129,129,129,128,127,127,127,127,127,127,127,126,126,126,127,127,127,127,128,129,128,128,128,128,128,128,127,127,127,127,127,128,128,128,129,129,129,129,128,127,127,126,126,125,125,126,126,126,125,125,125,125,125,125,126,126,126,126,126,125,126,125,125,126,127,127,127,127,127,127,128,128,128,128,128,127,127,127,127,127,128,127,127,128,128,127,128,128,127,127,126,126,126,127,127,127,127,127,127,127,128,128,128,128,127,127,127,127,127,127,127,127,127,127,127,129,129,129,129,128,126,127,127,126,127,127,127,127,126,126,126,125,125,127,128,128,128,128,126,125,125,126,126,127,127,128,129,129,131,132,132,130,130,124,121,118,117,117,119,122,125,129,129,131,130,130,129,129,129,128,128,128,128,128,128,127,127,127,126,127,128,128,128,129,129,128,129,129,127,127,127,127,127,128,127,129,129,129,129,129,128,129,129,128,128,129,129,129,129,129,130,131,131,130,128,128,128,128,126,128,128,128,128,128,\"}"
"data": "{\"type\":\"ecg\",\"data\":\"124,125,126,126,124,124,124,125,125,127,126,126,128,128,128,128,128,128,128,127,127,127,128,128,127,127,127,127,127,127,128,127,128,128,128,127,128,128,128,128,127,126,126,126,127,127,127,127,127,127,126,126,127,127,127,127,126,125,125,127,127,128,128,128,127,127,127,128,128,127,128,127,127,127,127,127,127,126,126,126,127,127,127,127,127,126,126,125,125,125,126,127,128,128,129,130,132,133,133,130,128,123,118,118,118,119,122,124,124,127,129,130,131,131,131,130,129,128,128,128,128,128,127,127,127,127,127,127,127,127,127,128,127,127,127,127,128,128,128,128,128,128,128,128,128,128,127,127,127,127,127,127,128,128,128,129,129,128,128,128,128,128,127,127,126,126,124,124,124,125,125,126,126,126,126,126,126,126,126,127,126,127,127,127,127,128,127,127,127,127,127,127,127,127,128,128,127,127,127,127,127,127,128,128,129,129,128,127,127,126,126,127,127,127,127,126,126,127,127,127,128,128,128,128,127,127,127,127,127,127,128,128,128,128,128,127,128,127,127,126,126,125,126,126,126,126,127,127,127,127,127,128,128,128,128,128,127,127,127,127,127,128,127,127,126,125,125,126,126,127,127,126,126,126,127,127,129,130,130,132,133,133,131,131,126,122,119,117,117,119,123,126,129,129,129,130,129,128,128,129,128,128,128,128,128,127,127,127,127,127,127,128,127,127,127,127,126,126,126,127,127,128,128,128,128,129,128,128,128,128,127,127,128,128,128,128,128,128,128,127,128,128,127,127,127,126,126,126,126,126,126,125,125,125,125,125,126,126,126,126,126,126,126,126,126,127,127,127,127,128,127,127,127,127,126,127,127,127,127,127,127,127,128,128,127,127,127,126,126,127,128,128,128,128,127,127,126,126,126,126,126,126,127,127,127,128,128,127,127,128,127,126,126,126,126,127,127,127,127,127,127,127,127,127,128,128,128,127,127,127,127,128,128,128,129,128,127,127,127,125,125,126,127,127,127,127,127,127,127,126,127,126,127,127,128,129,131,133,134,133,131,128,123,123,120,119,118,119,119,122,125,129,131,131,131,130,129,128,128,128,129,128,129,129,128,128,128,128,128,128,127,127,128,128,127,127,126,127,127,127,127,128,128,128,128,128,128,127,127,127,127,127,127,127,127,127,128,127,127,128,127,127,127,127,126,126,126,126,126,126,126,126,125,125,125,125,126,127,127,127,127,127,127,127,127,127,126,126,126,127,127,127,127,127,127,127,127,127,127,128,128,128,128,128,128,128,129,128,128,128,128,128,127,127,128,128,127,127,127,126,127,127,127,127,127,126,127,127,127,127,126,126,126,126,127,127,127,127,127,127,127,127,127,127,126,126,126,126,126,128,128,129,129,129,128,128,127,126,126,126,126,127,126,126,127,127,126,126,126,127,127,129,130,130,131,133,133,132,132,129,124,119,117,117,118,120,123,126,126,129,130,131,130,130,129,128,128,129,129,129,129,128,127,127,127,127,128,128,128,128,128,127,127,127,127,127,127,128,128,129,129,129,128,128,127,127,127,128,128,128,127,127,126,126,127,128,128,128,128,127,127,126,126,126,127,127,127,126,126,125,124,124,124,124,124,126,126,126,126,127,126,127,127,127,127,128,127,128,128,127,127,127,126,126,127,127,128,128,128,128,128,127,127,127,127,128,127,127,127,127,127,127,127,127,126,126,126,126,126,126,126,127,128,128,128,128,128,127,127,127,127,126,127,127,126,127,127,126,126,127,127,127,127,127,127,127,127,127,127,126,127,127,127,127,127,126,126,126,126,126,126,127,127,127,129,129,130,131,131,130,129,127,122,122,120,119,119,121,121,124,127,129,132,132,132,131,129,128,128,127,126,127,128,128,127,128,128,127,127,128,128,127,127,127,127,127,128,128,128,128,128,127,127,127,127,127,128,128,128,128,128,128,128,128,128,128,128,128,128,129,128,127,127,127,127,127,127,126,126,126,125,125,126,126,125,126,126,125,125,126,126,126,126,126,127,127,127,127,127,126,126,127,127,127,128,127,126,126,126,127,127,127,127,127,127,127,128,128,128,128,128,128,128,128,128,127,128,127,127,127,127,126,127,127,127,127,127,127,127,127,126,126,126,126,126,127,128,128,128,128,127,127,127,127,128,128,129,129,129,128,127,126,127,127,127,127,127,127,127,127,127,127,127,127,126,126,128,130,130,131,134,134,132,132,129,123,120,119,119,119,122,125,129,129,132,128,128,128,128,128,\"}"
"data": "{\"type\":\"ecg\",\"data\":\"128,127,128,128,127,126,126,126,126,127,127,128,129,129,128,129,129,129,129,128,128,128,128,128,128,128,128,128,128,127,127,127,129,129,129,129,128,128,128,128,128,128,128,128,127,127,127,127,127,128,127,126,125,125,124,125,125,125,125,126,126,127,127,127,127,127,126,127,127,126,127,128,127,127,127,127,127,128,128,127,127,127,127,127,127,127,128,128,128,127,127,127,127,127,128,127,127,126,126,125,126,127,127,127,127,127,126,126,126,127,127,126,127,127,126,127,128,128,128,127,127,127,126,126,127,127,128,129,129,129,128,126,125,125,125,126,126,127,127,126,126,126,127,127,127,128,128,128,129,131,133,134,133,132,128,123,119,117,117,117,120,124,127,128,130,131,130,129,129,128,128,129,128,128,128,128,127,128,128,127,128,128,127,127,128,127,127,127,127,127,127,128,128,128,128,128,128,128,127,128,127,127,128,128,127,127,128,128,128,128,128,128,127,127,127,127,126,127,127,126,127,126,125,125,126,124,125,125,125,126,127,126,127,127,127,127,128,127,127,127,128,127,127,127,127,127,128,128,128,127,127,127,127,127,128,128,128,128,128,128,127,127,127,127,126,127,128,128,128,128,127,127,127,127,127,127,126,127,127,126,127,127,127,127,127,127,127,127,127,127,128,128,127,127,127,126,127,128,128,128,128,126,127,127,128,128,128,128,128,128,126,126,126,126,125,125,125,126,126,126,127,127,126,126,126,126,127,128,129,130,132,134,134,133,132,128,123,119,119,119,118,120,124,125,128,131,132,131,131,129,129,128,129,129,129,128,127,126,126,126,126,127,127,127,127,128,128,128,128,128,127,128,128,128,127,128,128,128,128,128,127,127,126,126,127,127,127,128,127,128,128,128,128,128,127,127,126,126,126,126,126,126,126,126,126,126,125,125,125,125,126,126,126,126,126,126,126,127,127,128,127,127,127,127,127,127,127,127,127,126,127,127,126,126,127,127,127,128,128,128,128,128,129,129,128,127,127,126,126,127,128,128,127,127,127,127,126,126,126,127,127,127,127,127,127,127,126,127,127,127,127,127,127,127,127,128,127,127,127,128,127,129,128,128,127,126,124,125,126,126,127,127,127,127,126,126,126,127,127,128,130,131,132,134,134,131,128,124,122,119,118,118,120,120,123,127,130,132,132,132,131,130,129,128,128,127,128,128,128,127,127,127,127,127,127,127,127,127,127,127,127,127,127,127,128,128,128,128,128,128,128,128,128,128,128,128,126,128,128,127,127,128,127,127,128,128,127,127,127,127,127,126,126,126,125,125,125,125,125,125,125,125,126,126,127,126,127,127,127,127,128,128,127,127,128,128,128,128,128,128,127,127,127,127,127,127,128,127,127,128,128,127,127,127,127,127,128,128,128,128,127,126,126,126,126,127,128,127,127,127,127,126,127,127,127,127,128,128,128,128,128,127,128,128,127,127,127,128,128,127,128,127,127,127,127,127,127,127,126,127,127,126,126,127,126,126,127,127,128,128,129,131,133,133,132,129,125,119,118,117,117,119,121,122,126,128,130,132,132,132,132,131,130,129,128,127,128,127,127,127,126,126,127,127,127,127,127,126,127,127,127,128,127,127,128,127,128,129,129,128,129,128,127,127,128,128,128,128,128,128,128,128,129,129,129,128,127,127,126,126,125,125,125,125,125,125,125,124,125,126,125,127,126,126,126,126,127,127,127,126,126,125,126,126,127,127,128,128,128,128,128,128,128,128,127,128,128,128,128,128,128,128,128,128,128,128,128,128,127,127,126,126,127,127,127,127,127,127,127,127,127,127,127,127,126,126,127,127,127,127,127,127,127,127,127,128,128,128,127,127,128,128,128,128,128,128,127,127,126,126,126,126,126,126,126,126,126,126,127,127,128,128,130,131,133,134,133,131,129,124,119,117,117,116,118,122,125,128,130,132,132,131,130,130,129,128,129,129,129,129,129,128,127,127,127,126,126,127,127,126,127,127,127,127,128,128,128,128,129,128,128,129,128,128,127,128,128,127,128,128,129,127,128,128,128,128,129,128,127,127,127,127,127,126,126,125,126,124,124,125,126,125,125,126,125,125,125,125,125,125,125,126,127,127,128,128,128,127,128,127,127,127,127,127,127,128,128,127,127,127,127,127,127,128,128,128,129,129,128,127,126,126,126,127,128,128,128,128,128,127,127,128,128,128,127,127,127,126,127,127,127,128,127,128,128,127,127,128,127,126,126,125,125,125,125,128,128,128,128,128,\"}"
"data": "{\"type\":\"ecg\",\"data\":\"128,128,128,128,128,129,131,132,133,135,134,131,128,126,120,117,117,118,118,121,125,129,132,134,134,133,133,132,131,130,130,129,129,130,129,128,128,127,127,127,127,127,128,127,128,128,127,127,127,127,127,127,127,127,127,127,127,128,128,128,128,128,128,128,128,127,127,127,127,127,128,127,127,128,128,127,127,126,126,125,125,125,124,124,124,125,125,125,125,126,126,127,126,126,126,127,127,128,129,128,127,126,127,126,127,127,128,128,128,128,128,128,128,128,128,128,128,128,127,127,128,127,127,127,128,128,127,127,127,126,126,127,128,128,127,128,127,127,127,127,127,127,127,127,126,126,126,126,127,127,128,127,128,128,127,127,127,126,126,127,127,127,128,128,128,127,127,127,126,127,127,127,126,127,128,127,127,127,126,125,127,127,128,129,131,132,134,134,132,129,125,121,118,117,117,119,121,125,128,131,131,131,130,129,128,128,128,129,128,128,128,128,127,127,127,127,127,127,128,128,128,128,128,127,127,127,127,127,127,128,128,128,128,128,127,127,127,126,126,127,127,127,128,128,128,128,128,128,128,128,127,126,127,126,126,126,125,124,126,125,125,126,126,125,126,126,126,127,127,127,127,127,127,127,127,127,127,127,127,127,128,128,129,128,127,127,126,125,126,128,127,128,127,127,127,127,127,127,127,127,126,127,128,128,128,129,127,126,126,127,125,126,127,127,128,128,128,128,127,127,127,128,128,128,129,129,129,128,129,129,128,127,126,126,125,126,127,127,127,126,126,126,126,126,127,127,128,130,131,133,134,134,132,129,124,120,117,116,116,118,122,125,129,131,132,131,130,129,128,128,128,128,128,128,128,128,128,127,127,127,127,126,126,127,126,127,127,127,128,129,128,129,129,128,128,128,127,128,128,128,128,128,128,127,128,128,127,129,129,129,129,130,128,127,127,127,126,126,125,125,124,124,125,125,125,125,126,125,125,125,126,126,127,127,126,126,127,126,126,128,128,127,128,127,126,127,127,127,126,127,126,127,127,128,128,128,128,127,128,127,127,127,128,128,127,128,128,127,127,128,128,128,128,128,128,127,127,127,127,127,127,127,127,126,126,126,126,126,127,126,126,127,127,127,127,126,127,127,127,127,128,128,127,127,127,127,126,126,127,127,126,127,126,125,126,127,127,128,129,129,128,128,128,128,129,129,128,128,128,127,126,127,126,126,126,126,126,126,127,127,126,127,127,127,127,127,127,128,129,129,130,132,133,132,132,129,125,120,118,116,116,118,120,123,126,129,131,131,131,130,129,128,128,129,129,129,128,128,128,128,128,128,127,127,126,127,126,127,126,127,127,128,127,128,127,128,128,128,129,129,128,128,128,127,127,128,128,128,128,128,129,129,129,129,128,128,128,127,127,126,126,126,126,126,126,125,125,126,126,126,126,125,125,125,125,126,127,127,127,127,126,126,127,127,127,127,127,127,128,128,127,128,127,126,127,127,128,128,128,128,128,127,127,127,127,127,127,127,127,127,126,127,127,126,126,127,126,126,127,127,127,127,127,128,127,127,128,128,127,127,127,127,126,127,127,127,127,127,128,128,128,128,128,128,127,127,127,128,128,128,128,129,128,128,127,127,126,125,125,126,126,126,126,127,127,126,127,127,127,128,128,129,131,131,132,132,130,127,123,119,117,117,117,118,121,124,127,130,132,133,133,132,131,130,129,129,128,128,128,128,127,127,127,126,126,127,127,127,128,128,128,128,128,128,128,128,127,127,128,128,127,128,128,128,127,128,127,127,127,127,127,127,127,127,128,128,129,128,128,127,127,126,126,125,125,126,126,126,126,125,125,125,125,125,125,126,126,125,126,126,127,127,127,127,127,127,127,127,127,127,127,127,127,128,128,128,128,129,128,128,128,127,127,127,128,127,127,127,127,127,127,128,128,128,128,127,127,127,127,127,128,128,128,127,127,127,127,127,128,127,127,127,127,127,127,128,128,127,127,127,128,128,128,129,129,129,128,128,127,127,126,126,126,126,126,127,126,127,126,126,125,126,127,127,128,130,132,133,133,132,129,125,120,117,116,116,117,120,123,126,129,131,132,133,132,131,130,129,128,128,128,128,128,128,128,127,127,127,127,127,128,128,128,128,128,128,128,127,127,127,127,128,128,129,128,128,128,128,128,128,128,128,128,128,127,127,127,128,127,127,127,125,126,126,126,126,126,126,125,126,125,125,124,124,124,125,124,126,126,125,125,126,125,126,126,128,128,128,128,128,\"}"
"data": "{\"type\":\"ecg\",\"data\":\"128,129,128,128,128,127,128,128,129,130,129,128,128,128,127,127,127,127,128,128,128,128,128,127,127,127,127,127,126,127,126,126,127,127,126,127,127,128,128,127,126,126,127,127,127,128,128,127,129,128,128,128,129,128,127,128,128,127,128,129,128,127,127,126,125,126,126,126,126,127,127,126,126,125,125,126,127,129,131,133,134,134,133,131,128,122,119,116,115,116,118,121,125,128,130,132,132,131,129,129,129,128,128,128,128,128,128,127,127,127,128,128,128,129,127,128,127,127,127,128,127,128,127,127,126,128,128,129,129,129,129,129,128,128,129,128,127,128,128,127,128,128,128,129,129,128,127,127,127,126,126,126,125,124,124,124,124,125,125,126,125,126,125,125,125,126,126,127,127,127,127,128,126,127,127,127,126,127,127,127,127,127,128,128,128,128,128,128,128,127,127,127,127,128,128,128,128,127,128,128,127,127,127,125,126,126,127,127,127,128,128,127,128,128,127,128,127,127,126,127,127,127,128,129,128,128,127,127,127,127,127,126,126,126,126,125,126,126,125,126,126,126,126,128,129,130,130,132,133,133,130,128,122,117,116,116,117,120,123,125,128,130,131,132,131,131,129,129,130,130,129,129,129,128,128,128,127,128,128,128,127,128,127,127,128,127,127,127,127,126,127,128,128,128,128,129,128,128,128,128,127,128,127,127,127,128,128,129,129,128,128,128,127,126,126,126,125,125,125,125,124,125,124,125,125,125,126,126,126,126,126,125,126,127,126,126,127,127,128,128,129,128,128,129,128,127,128,127,127,127,127,127,127,126,127,128,128,128,128,129,129,128,128,128,127,127,127,126,127,127,127,127,127,127,127,127,127,128,127,127,128,129,128,128,128,128,127,127,128,127,127,126,126,126,126,126,127,126,126,126,126,126,126,126,128,129,129,131,132,133,133,132,130,126,123,119,117,117,118,118,122,125,128,131,132,132,131,129,129,128,130,129,129,129,129,127,127,127,127,126,127,127,126,127,127,127,128,129,128,128,129,128,128,129,129,128,128,128,128,128,128,128,129,128,128,127,127,127,128,127,127,128,128,128,128,128,127,125,125,125,125,125,125,124,124,124,124,124,125,125,126,126,126,127,128,127,127,128,128,127,128,127,127,126,127,127,127,127,127,127,127,127,128,128,129,129,129,129,129,128,127,127,127,127,127,127,127,127,127,127,128,127,127,128,127,126,127,127,127,127,128,128,128,128,127,127,126,126,126,126,126,126,126,126,126,127,128,128,128,128,129,129,131,134,134,133,132,128,122,121,118,117,117,120,121,125,128,131,131,131,130,129,128,128,129,129,129,128,128,128,127,127,127,127,127,127,127,127,126,127,127,128,127,127,127,127,127,127,128,128,128,128,128,128,128,128,127,128,128,129,128,128,128,127,127,128,128,128,128,127,126,126,125,125,125,125,125,125,125,125,125,124,125,126,127,127,127,127,126,125,126,127,128,127,127,127,126,125,126,126,127,127,127,128,128,127,127,128,127,127,128,128,128,128,127,127,127,128,128,128,127,128,128,127,127,127,126,127,127,128,129,130,129,128,128,127,126,125,126,125,125,126,126,127,127,127,126,126,125,125,126,128,129,131,132,134,134,132,130,128,123,120,118,117,117,119,123,127,130,131,132,131,131,129,129,129,128,128,128,128,127,128,127,126,126,126,126,127,128,128,128,128,128,128,128,128,127,127,127,127,127,128,128,127,127,128,128,129,128,128,128,128,128,128,128,127,127,127,127,126,127,127,127,127,126,125,125,125,125,125,125,125,125,125,125,125,126,126,126,127,127,127,127,127,127,127,127,127,128,128,127,127,127,126,126,127,127,128,128,128,127,127,127,127,127,127,127,127,127,127,127,127,127,127,127,127,127,127,128,128,128,128,127,126,126,127,126,126,127,127,127,127,128,128,129,128,128,128,127,126,127,127,127,128,128,128,127,128,127,126,126,126,125,126,126,126,126,127,126,127,127,127,128,127,127,128,129,130,133,133,131,129,125,121,120,119,118,118,121,123,126,130,132,132,132,131,130,129,130,129,129,128,128,127,126,127,126,126,127,127,127,129,128,127,127,127,126,126,126,127,127,127,128,128,128,129,128,128,128,129,129,128,128,128,127,128,128,128,127,128,128,128,127,127,127,126,126,126,126,126,126,126,125,125,125,125,125,125,126,126,126,126,126,126,126,127,126,126,126,126,126,126,127,126,127,126,126,127,127,127,127,127,127,128,128,128,128,128,128,128,\"}"
"data": "{\"type\":\"ecg\",\"data\":\"126,126,127,127,126,126,126,126,127,127,126,126,126,126,126,127,127,127,127,127,127,128,128,128,128,128,126,127,127,127,127,128,128,129,128,129,129,128,128,128,126,125,125,125,126,126,127,127,127,127,127,127,127,128,129,130,130,132,133,132,129,126,121,118,118,118,119,121,124,126,129,131,132,132,132,131,130,130,130,129,129,128,128,127,127,126,126,126,125,126,127,127,127,128,127,127,127,127,127,127,128,128,128,128,128,128,128,127,128,127,127,127,127,128,128,128,129,128,127,127,126,127,127,128,127,127,126,125,124,124,124,124,124,124,124,125,126,126,127,127,128,127,127,127,128,128,128,128,127,127,127,128,128,128,128,128,127,128,128,128,128,128,127,127,127,127,127,128,127,127,127,127,127,127,127,127,127,127,127,127,127,126,126,126,126,126,127,127,127,127,127,127,127,127,127,127,127,128,127,127,127,127,126,127,127,127,127,127,126,127,127,128,128,128,127,127,127,127,127,127,128,128,128,128,128,127,126,126,126,126,127,126,126,126,126,126,126,126,127,127,127,128,130,131,133,133,131,129,125,123,121,119,118,119,119,122,126,129,131,132,132,132,130,129,129,128,127,128,128,128,128,128,127,127,127,128,128,128,128,128,127,127,127,127,128,128,128,128,128,127,127,128,128,128,128,128,127,127,128,128,127,128,128,128,128,128,128,128,127,127,127,127,125,125,125,125,125,126,125,125,126,126,125,127,127,127,127,127,126,127,127,127,127,127,127,127,127,127,127,127,127,127,127,127,127,128,128,128,128,128,128,127,127,127,126,126,126,127,127,127,127,127,127,128,127,127,127,127,127,127,127,127,127,127,127,127,126,125,126,126,126,126,127,127,127,127,127,127,127,127,127,127,127,128,128,128,128,127,128,128,128,128,128,128,128,128,128,128,127,127,126,126,126,126,126,126,126,125,125,125,126,126,127,128,128,129,131,133,134,133,131,128,122,119,119,118,118,121,124,125,128,130,131,131,130,130,129,129,130,130,130,129,129,128,128,127,127,126,126,126,127,127,127,127,127,127,127,127,127,127,126,127,128,128,128,129,128,128,128,128,128,127,127,127,127,127,128,127,127,127,127,126,126,126,126,126,126,126,126,126,125,125,126,126,126,126,127,127,127,127,127,126,126,126,126,126,127,127,127,127,128,127,127,127,127,127,127,127,127,127,128,128,128,128,128,128,128,128,128,128,128,128,127,126,126,126,126,127,127,127,127,128,128,128,128,127,126,127,127,127,127,128,127,127,127,128,128,127,127,128,126,126,126,127,126,127,127,127,127,127,127,128,128,128,128,127,127,126,127,127,128,128,128,128,128,128,128,127,126,126,126,126,126,127,127,127,126,126,126,126,127,128,128,129,131,133,133,132,129,128,123,120,118,117,117,119,123,127,130,131,132,130,129,129,128,128,129,128,128,128,128,128,128,127,127,126,126,126,127,127,128,128,128,128,128,128,127,128,127,127,128,127,128,128,128,127,128,127,127,127,127,127,127,128,128,128,128,127,127,127,126,126,126,126,126,127,127,126,126,126,125,125,125,125,125,126,126,126,126,126,126,126,126,127,127,126,127,127,126,126,127,126,127,128,128,128,128,128,127,127,128,127,128,128,128,127,128,127,128,128,128,127,126,127,127,127,127,128,127,127,128,127,128,128,128,128,127,127,127,127,127,127,127,127,127,126,127,127,126,126,127,127,127,127,127,128,128,129,129,130,128,128,126,125,125,126,125,126,126,126,126,127,127,126,126,126,127,127,129,129,130,131,132,132,132,130,126,120,116,116,117,118,121,124,125,127,130,132,132,131,131,131,129,129,129,128,127,128,127,127,127,128,128,127,127,128,127,127,127,127,127,127,128,128,128,128,128,127,128,128,128,128,127,127,127,127,127,128,128,128,128,128,129,128,128,127,126,126,126,126,126,126,126,126,126,126,125,125,124,124,125,125,125,126,126,126,127,127,127,127,128,127,128,128,128,126,127,126,127,127,127,127,127,127,127,127,128,127,127,127,128,128,128,128,128,128,128,128,128,128,127,127,127,127,127,127,127,126,126,126,127,127,127,127,127,127,127,127,128,128,127,128,128,128,128,128,127,127,127,127,127,128,128,128,128,127,127,126,125,125,126,126,126,127,127,126,126,126,127,127,128,128,129,130,131,133,133,131,129,127,121,119,119,118,118,122,124,127,131,131,132,133,131,130,130,130,129,128,127,127,126,126,128,128,128,128,128,128,128,128,\"}"
"data": "{\"type\":\"ecg\",\"data\":\"129,128,128,128,128,127,126,126,127,127,127,128,129,128,128,128,128,127,127,127,128,128,129,129,129,129,128,128,128,128,127,127,127,126,126,125,124,125,125,125,125,125,125,125,125,126,126,126,126,126,127,127,127,127,127,127,127,128,128,128,128,128,127,128,128,128,127,126,126,127,127,127,128,127,127,126,126,126,126,126,127,128,127,128,128,128,128,128,127,127,127,126,126,125,125,125,126,126,126,126,127,127,127,128,128,128,128,128,128,128,128,127,127,127,127,127,129,129,129,129,128,127,126,125,125,125,126,126,126,126,127,127,127,128,128,129,130,133,134,134,131,128,124,119,119,118,118,120,123,124,126,129,130,130,130,129,128,128,128,127,128,129,128,128,128,128,127,127,126,126,127,127,127,128,128,127,127,127,127,127,128,128,128,128,128,128,128,128,128,128,127,127,127,128,128,128,128,128,128,128,128,128,126,127,127,126,125,125,125,125,125,125,126,125,125,126,126,126,126,126,126,127,128,127,127,128,127,126,127,127,127,127,127,127,127,127,128,128,127,127,127,127,127,128,128,128,128,127,127,128,127,127,127,126,126,127,127,127,127,127,127,127,127,128,128,128,127,128,126,126,126,126,126,127,127,127,127,128,127,127,127,127,127,127,127,126,128,128,128,128,128,127,127,127,127,126,126,125,126,126,127,127,127,126,126,127,127,128,129,130,132,134,133,132,131,127,121,118,117,117,118,121,125,128,129,130,130,130,129,128,129,129,128,128,128,128,128,128,128,128,127,127,127,127,127,127,127,128,127,127,127,127,127,127,127,128,128,128,128,128,128,128,128,127,127,127,127,127,127,127,127,127,127,127,127,127,127,127,126,126,126,126,126,126,126,126,126,126,126,126,126,126,126,126,126,126,126,126,126,126,127,127,127,128,128,127,128,128,128,128,128,127,127,128,128,128,128,128,127,127,127,127,128,128,128,127,128,128,128,128,128,128,127,126,126,126,126,126,127,127,127,127,127,127,127,127,128,128,127,127,127,128,127,128,128,128,127,128,127,127,127,127,126,126,126,126,125,126,126,126,126,127,127,127,127,128,128,129,130,131,131,131,130,127,126,122,120,120,120,120,122,125,128,131,131,132,131,130,129,128,128,128,128,129,129,128,128,127,127,127,127,127,128,128,128,128,127,127,127,127,128,127,127,127,127,126,127,127,127,127,127,128,127,127,127,128,128,128,128,128,128,128,128,127,127,126,126,125,126,126,126,126,126,126,126,126,126,126,126,126,126,126,126,126,126,126,126,127,127,127,127,127,127,127,127,128,128,127,126,126,126,126,127,127,127,127,127,128,128,128,127,127,127,126,126,127,127,127,128,128,127,126,126,127,127,127,126,126,126,126,126,127,128,128,128,128,127,127,128,128,128,129,128,127,127,127,126,126,126,126,127,126,126,126,126,125,126,126,127,127,128,129,130,131,132,133,133,131,128,127,122,119,118,118,118,121,124,128,131,131,132,131,129,129,129,128,128,128,127,127,127,127,127,127,127,127,128,128,128,128,128,129,129,128,128,127,127,126,127,127,127,127,128,128,128,128,128,128,127,128,128,128,129,129,129,128,128,128,128,128,128,127,127,126,126,126,126,125,126,126,126,125,125,125,125,125,126,125,126,126,126,126,127,127,127,127,127,127,127,127,127,128,128,128,128,127,127,126,126,126,127,126,127,128,128,128,128,128,127,127,126,127,127,128,127,128,127,128,128,128,127,128,127,127,127,127,126,127,127,127,127,126,126,127,127,127,127,127,128,128,128,129,129,128,128,128,127,127,128,128,128,127,128,127,127,127,127,126,126,126,125,126,127,127,127,127,126,125,125,125,125,127,128,130,131,132,133,132,130,129,124,120,118,118,118,120,123,126,129,129,131,131,130,129,129,128,128,129,129,129,128,127,127,126,126,126,127,126,127,127,127,126,127,127,127,127,128,127,127,127,127,128,128,129,129,128,129,129,128,128,129,129,128,127,128,127,127,127,128,128,127,127,127,127,127,127,126,126,125,125,126,125,125,126,126,125,126,127,127,127,127,127,125,125,125,125,126,127,127,127,127,127,127,127,127,128,127,127,127,127,126,127,127,127,127,128,128,128,128,128,127,127,127,127,127,128,128,128,128,128,127,127,127,128,128,128,128,128,128,128,127,127,127,126,126,126,126,127,128,128,127,127,126,126,126,127,127,128,127,127,128,128,128,127,127,126,126,126,127,127,127,126,126,126,126,128,128,128,128,128,\"}"
"data": "{\"type\":\"ecg\",\"data\":\"129,130,132,134,135,134,132,129,124,123,120,119,118,120,120,123,126,129,130,130,130,130,128,128,128,128,127,128,127,127,127,127,127,127,127,127,127,127,127,127,127,127,127,127,127,127,128,128,128,128,127,128,128,128,128,128,127,127,127,127,127,128,127,128,127,128,128,128,127,127,127,128,127,127,127,126,125,125,125,125,126,127,126,126,126,125,125,126,127,127,127,128,127,127,127,127,127,128,128,128,128,128,128,127,127,126,127,127,127,127,128,127,126,126,126,126,127,128,128,128,127,127,127,127,127,127,127,126,127,127,127,127,128,127,127,127,127,127,127,127,127,127,128,128,128,128,127,127,127,127,127,127,126,126,126,127,126,127,128,128,128,128,127,128,128,128,128,128,128,128,128,126,126,126,126,125,126,126,126,126,126,126,127,126,126,127,128,129,130,132,134,135,133,131,129,122,119,117,116,116,120,123,126,129,130,131,131,130,129,129,129,129,128,128,128,128,128,127,127,127,127,127,128,128,128,128,128,127,127,127,127,127,127,128,128,128,128,128,127,127,127,127,127,128,128,128,128,128,128,127,128,127,127,127,127,127,127,126,126,126,126,126,126,125,125,125,124,125,125,125,127,127,127,128,128,127,126,126,126,126,126,127,127,127,127,127,127,127,127,127,127,127,127,127,127,127,128,128,128,128,128,128,128,127,127,127,127,127,127,127,126,127,128,127,127,127,127,126,127,127,126,125,126,127,127,127,128,128,127,127,127,127,127,127,127,128,128,128,128,128,128,128,129,128,129,129,128,128,128,128,127,127,127,127,127,127,126,126,126,126,126,126,126,126,126,126,127,128,130,131,134,134,132,130,128,123,119,118,117,117,119,123,126,129,130,130,131,130,129,128,128,128,129,129,129,129,129,128,126,126,127,127,127,129,129,128,127,127,127,127,128,129,129,128,128,128,127,128,128,128,128,127,127,127,127,127,127,127,128,128,129,128,128,127,127,126,126,126,125,125,125,125,125,125,125,125,125,125,125,125,126,126,126,127,127,127,127,127,127,127,127,127,127,127,127,127,128,128,128,128,128,127,127,128,128,128,128,128,128,128,128,128,128,127,127,126,126,127,127,127,127,127,127,127,127,126,128,127,127,127,128,127,127,127,127,126,126,127,127,127,128,129,128,128,128,127,127,127,127,127,127,127,127,128,128,127,126,126,126,126,126,127,126,126,126,126,126,127,127,128,128,128,129,130,131,133,132,130,127,125,121,119,119,120,120,123,127,129,130,131,131,131,130,129,129,129,128,128,128,128,128,128,127,127,126,126,126,126,127,127,127,126,127,127,127,127,127,128,128,129,129,129,128,128,128,128,128,128,128,128,127,127,128,127,127,128,128,127,128,128,128,128,128,126,126,125,125,124,124,124,125,125,125,126,126,126,126,126,127,127,127,127,127,127,127,127,128,127,127,127,127,127,127,127,128,128,128,128,128,127,127,127,127,128,128,128,127,128,127,127,127,127,128,128,128,128,128,128,127,127,127,126,126,127,127,127,127,126,126,126,127,128,128,128,128,128,128,128,128,128,127,128,128,128,128,127,126,125,125,125,125,126,127,127,127,126,126,126,126,126,126,127,128,130,131,132,134,134,132,130,126,121,118,117,117,119,122,125,128,129,132,133,131,130,129,129,128,128,128,128,128,128,128,128,128,128,128,128,128,128,128,127,127,127,127,127,127,127,127,127,128,128,128,128,128,128,127,127,127,127,127,127,128,128,128,128,128,128,128,127,127,127,127,126,126,126,126,125,125,124,124,123,124,125,125,125,126,126,127,126,126,126,127,127,127,128,129,128,128,128,127,126,127,127,127,127,127,127,127,128,129,128,128,128,127,126,127,127,127,127,127,127,127,127,128,127,127,128,128,128,128,128,127,127,127,127,127,127,127,127,127,127,127,126,126,126,127,127,127,128,128,128,128,128,127,127,127,127,126,126,126,126,126,126,126,126,126,125,125,125,126,128,128,128,130,131,133,133,133,131,127,122,119,118,118,118,121,125,128,128,131,131,131,130,129,128,128,128,128,128,128,128,128,127,127,128,128,127,127,127,127,127,127,128,128,127,127,127,127,127,128,128,128,127,128,128,128,128,128,128,127,127,128,128,129,128,129,128,128,127,128,127,127,127,126,126,125,125,125,125,125,125,124,125,125,125,126,126,126,126,127,126,126,126,126,127,127,126,126,126,127,127,128,127,127,128,127,127,128,127,127,128,127,126,126,128,128,128,128,128,\"}"
"data": "{\"type\":\"ecg\",\"data\":\"127,127,127,126,126,126,126,126,126,126,126,127,126,127,127,127,127,127,126,126,126,126,126,127,127,127,128,128,128,128,128,128,128,128,129,128,127,127,126,125,125,125,125,126,126,126,126,126,127,127,126,127,128,128,128,130,130,132,134,134,133,130,125,121,120,118,117,118,121,122,126,129,131,131,131,130,130,129,129,128,128,127,127,127,127,127,128,127,126,126,126,126,126,127,127,127,127,127,128,128,128,128,129,128,128,129,127,128,128,127,127,128,127,127,128,127,128,129,129,128,129,128,127,127,127,127,127,127,126,126,126,126,125,126,126,125,125,126,125,125,126,127,127,127,128,128,127,126,126,126,126,126,127,127,127,128,127,127,127,127,127,127,127,127,127,127,128,127,128,128,127,127,128,127,127,128,128,127,127,128,128,127,127,127,128,127,127,128,128,127,127,128,128,127,127,127,126,125,126,126,126,126,127,127,127,127,127,128,128,128,129,129,129,130,129,128,128,127,126,126,126,126,126,126,126,126,126,126,126,126,127,127,128,128,128,129,130,131,133,133,131,128,124,120,119,118,118,119,122,123,126,130,132,132,132,131,130,129,129,128,128,126,127,127,127,127,128,128,127,127,127,127,127,127,128,128,128,127,127,128,127,127,127,128,127,128,129,129,129,128,128,128,127,127,128,128,126,127,127,127,128,127,128,128,127,127,126,126,125,124,124,124,125,125,125,126,126,126,127,128,127,127,127,127,127,127,127,127,127,128,128,128,128,127,127,127,127,128,128,128,127,127,127,127,128,128,128,128,128,127,127,127,126,126,127,127,127,128,127,127,127,128,128,128,128,128,127,127,127,127,127,127,127,127,127,127,127,127,128,127,128,127,127,127,127,127,127,127,128,129,128,128,128,127,127,127,127,127,126,126,126,126,126,126,125,125,126,126,126,127,127,127,129,131,133,134,133,131,128,125,121,119,118,118,118,122,124,128,131,131,131,131,130,129,129,129,128,128,128,127,127,128,127,127,127,127,126,127,127,128,128,128,128,128,127,128,127,127,128,128,128,128,129,128,128,128,128,127,128,128,129,128,129,128,129,128,128,127,127,126,126,126,126,126,125,125,125,125,126,126,126,125,125,124,125,125,126,126,127,127,127,128,127,127,127,126,126,126,126,126,127,127,126,127,127,127,128,129,129,129,128,128,128,128,127,127,127,128,127,127,127,127,127,128,128,128,129,128,126,127,127,127,127,127,127,127,127,126,126,126,126,126,126,127,127,127,127,127,127,127,127,128,128,128,128,128,128,128,127,127,127,127,127,128,128,128,127,127,126,126,125,125,126,127,127,128,127,127,126,126,127,127,126,128,129,129,131,133,133,132,130,124,120,117,116,116,119,121,125,127,130,132,132,132,131,130,130,130,129,128,128,128,128,128,127,127,126,126,126,127,128,129,128,128,127,127,127,127,127,128,128,128,128,129,129,129,128,128,128,127,127,128,127,127,127,127,127,128,127,128,129,129,128,127,126,126,125,125,125,125,125,125,125,125,125,125,125,125,126,126,126,127,127,127,127,127,127,127,127,127,128,128,128,128,127,126,126,126,127,127,127,127,126,127,127,127,127,128,128,128,128,128,128,127,128,128,128,127,128,127,127,126,127,126,126,126,126,126,126,127,127,127,127,127,127,128,128,128,128,129,128,127,128,127,126,127,128,128,127,127,127,126,126,127,127,128,127,127,127,128,128,128,128,128,128,128,127,126,126,126,126,126,127,127,126,127,127,126,126,126,125,126,126,127,129,132,134,135,134,133,128,122,119,117,117,117,120,123,126,129,132,132,132,131,130,128,128,128,128,128,128,128,128,127,127,127,127,127,127,127,128,127,127,127,127,126,127,127,126,127,128,128,128,129,129,128,128,129,128,128,128,128,127,128,128,128,128,128,128,127,127,127,127,127,127,126,126,125,125,125,124,124,125,124,124,125,125,125,126,126,126,127,127,127,126,127,126,127,127,128,128,129,128,127,127,128,126,126,127,128,127,128,129,129,128,128,127,127,127,127,127,127,127,127,127,127,127,128,128,128,127,127,126,126,126,126,126,126,126,126,126,127,127,127,128,128,128,128,127,127,127,127,127,128,129,128,128,128,127,127,128,128,128,129,129,128,128,127,126,125,126,125,125,126,126,127,127,127,126,126,126,127,127,127,127,129,129,131,134,134,132,130,126,119,118,117,117,119,121,123,127,130,132,133,133,132,131,130,129,129,129,128,128,128,127,128,128,128,128,128,\"}"
"data": "{\"type\":\"ecg\",\"data\":\"128,128,127,127,126,126,126,126,126,127,127,127,127,126,126,126,127,126,127,127,128,128,128,128,128,127,127,128,127,128,128,128,128,128,127,127,126,125,125,125,125,125,124,124,124,125,125,125,126,125,125,126,126,127,127,127,127,127,127,127,128,128,127,128,127,127,127,128,127,127,128,128,127,128,128,127,127,127,127,127,127,127,127,127,127,128,128,128,128,128,128,127,126,126,126,126,126,127,126,127,127,127,127,127,127,127,127,127,127,127,127,127,128,128,128,128,129,128,127,127,127,127,127,127,127,127,128,127,126,126,126,126,126,126,126,126,126,126,127,127,126,127,128,128,128,130,132,134,134,133,130,126,120,116,116,116,116,119,123,125,128,132,132,132,131,130,130,130,130,130,129,128,128,128,127,127,127,127,127,127,128,127,127,127,127,127,128,128,128,129,128,128,127,128,127,128,128,128,128,128,128,128,128,128,128,127,128,127,127,126,127,127,127,127,128,127,126,126,125,124,124,124,124,125,125,126,125,124,125,125,125,126,127,127,127,127,126,127,127,127,128,128,128,129,130,129,129,128,127,126,127,127,128,128,128,128,128,128,128,128,127,127,127,127,128,128,128,128,127,127,127,127,126,127,126,127,127,127,127,128,128,127,127,127,126,126,127,127,126,127,127,127,128,129,129,128,128,128,127,127,127,128,128,128,128,128,127,126,126,125,125,126,126,126,127,127,126,126,126,126,127,126,127,127,128,129,131,134,135,134,132,128,122,119,118,116,116,119,122,124,127,130,130,130,129,130,129,129,129,128,128,128,128,128,128,128,128,127,127,127,126,127,127,127,127,127,127,127,127,127,127,127,128,129,129,128,128,128,128,128,128,128,128,127,128,128,129,129,129,128,128,128,127,127,126,126,126,126,126,126,125,124,124,125,126,126,126,126,125,126,126,127,127,128,127,127,127,127,126,126,126,126,127,127,127,128,128,128,128,128,128,128,128,128,128,128,128,128,128,128,127,127,128,127,127,127,127,127,127,127,127,127,127,127,127,127,128,128,127,128,127,127,126,127,126,127,127,127,126,126,126,126,127,127,127,127,127,127,127,127,128,128,128,128,128,128,128,127,127,126,126,125,125,126,126,126,127,126,126,126,126,126,126,127,128,129,130,132,134,135,135,132,129,124,120,118,116,116,119,121,124,128,131,131,130,130,129,129,129,129,128,129,129,128,129,129,128,127,127,126,126,126,127,127,127,126,127,127,128,129,129,128,128,128,127,128,128,128,128,129,129,129,128,128,128,128,128,128,128,128,127,127,127,127,127,127,127,126,126,126,126,125,125,125,124,124,125,125,125,126,126,126,126,126,127,127,128,127,128,127,127,127,127,127,127,127,127,128,128,128,129,128,128,128,127,127,127,127,127,128,128,128,127,127,127,127,127,128,127,127,127,127,127,127,127,127,127,126,126,126,126,127,127,128,128,127,127,128,127,127,127,127,126,126,127,128,128,128,129,128,128,128,128,128,129,129,129,129,128,127,126,126,125,126,126,126,126,127,127,127,127,127,126,126,126,128,128,129,130,130,132,133,134,132,131,126,121,117,116,115,117,119,123,126,128,130,131,131,130,129,129,129,129,129,129,129,128,127,127,126,126,126,127,127,128,127,127,128,128,128,128,128,127,127,127,127,127,128,127,128,128,128,128,128,128,127,127,127,127,128,129,129,128,128,126,126,127,127,127,127,126,126,125,125,125,125,125,125,125,125,125,126,126,126,127,127,126,126,126,126,126,127,128,128,128,127,127,127,127,128,128,128,128,128,128,128,128,128,128,127,128,129,128,128,129,128,126,127,127,127,127,127,127,126,126,127,127,127,127,127,127,127,128,128,127,127,128,128,128,128,127,127,126,126,126,127,127,128,127,128,128,128,128,128,128,128,128,127,128,127,126,125,125,125,125,125,126,126,126,127,127,127,128,128,128,129,130,131,132,133,132,130,124,120,117,116,116,118,121,123,126,128,131,133,132,132,131,129,128,128,128,129,129,129,128,128,127,127,126,127,127,127,127,127,126,127,127,127,127,127,127,127,128,129,128,129,129,128,128,128,128,128,128,129,130,129,129,128,128,127,128,127,127,127,127,126,126,126,125,125,124,124,124,124,124,125,126,125,125,125,125,125,126,126,127,126,127,127,127,127,127,127,127,127,128,128,128,128,128,127,127,128,128,127,128,128,127,126,127,127,126,128,129,128,128,128,128,128,127,127,127,127,127,127,128,128,128,128,128,128,\"}"
"data": "{\"type\":\"ecg\",\"data\":\"126,127,127,126,126,126,126,126,127,128,128,128,128,127,127,127,127,127,127,127,127,127,126,126,126,125,125,125,125,126,126,126,126,125,126,126,126,127,128,129,130,132,134,134,133,130,127,121,118,117,116,117,120,122,125,128,131,132,133,132,130,130,129,129,130,129,128,128,128,127,127,126,126,126,127,127,127,128,128,128,128,128,127,128,127,127,127,127,128,129,128,128,128,126,127,128,128,128,128,128,128,128,128,128,128,128,128,128,128,127,126,126,125,124,125,124,124,125,125,125,125,126,125,126,126,126,126,127,126,127,127,127,127,127,127,127,127,127,127,127,128,128,128,128,129,128,128,128,128,127,128,127,127,127,127,127,127,127,127,128,127,127,127,127,127,128,129,128,128,127,126,126,126,126,126,127,127,127,127,127,127,126,126,127,127,127,127,128,127,127,128,128,127,127,128,127,127,127,127,127,128,127,127,127,126,125,126,126,126,127,126,126,126,126,127,128,128,128,129,130,131,134,134,133,131,126,121,119,117,115,116,119,122,125,129,131,132,131,131,131,129,128,128,128,129,129,128,128,128,127,127,128,127,127,127,127,127,127,127,127,127,127,128,128,128,129,128,128,129,128,128,128,127,128,128,128,128,128,129,128,127,128,128,126,127,127,126,126,127,126,126,125,126,125,125,125,125,125,125,126,126,126,127,127,126,126,127,127,127,127,127,127,127,128,127,127,127,128,127,128,128,127,127,128,127,127,128,128,128,127,127,127,127,127,128,128,127,126,127,126,127,127,127,127,127,127,127,127,126,127,127,126,127,128,128,127,128,128,127,127,128,128,127,128,128,127,127,128,127,128,128,127,127,127,127,127,127,127,128,128,127,128,128,128,127,127,128,127,125,126,125,125,126,127,127,127,126,126,126,126,127,127,128,129,130,133,135,135,133,131,126,121,118,117,116,117,119,123,126,129,132,132,131,131,130,129,129,129,129,128,127,127,127,127,127,127,127,127,127,127,127,127,127,127,127,128,128,128,129,129,128,128,128,127,127,128,128,128,128,128,128,127,127,127,126,127,128,128,128,128,127,127,126,126,126,126,126,125,125,125,125,125,125,125,124,124,125,126,126,127,127,127,127,127,128,128,128,128,128,127,128,127,128,128,128,128,128,128,127,127,128,128,128,128,128,128,127,127,126,127,127,128,128,129,128,127,128,127,126,127,126,126,126,127,126,127,127,128,127,127,127,127,127,127,127,127,127,127,127,127,128,128,128,128,128,127,127,126,127,127,127,127,128,127,128,128,128,128,128,128,128,128,129,128,128,128,128,128,127,126,126,125,125,126,127,126,126,126,125,125,126,127,128,129,129,130,131,133,134,132,130,126,120,117,117,116,117,120,123,125,128,131,133,133,132,130,130,130,130,129,130,130,129,128,127,127,126,125,125,125,125,126,127,127,127,127,127,127,127,127,127,128,128,129,129,129,128,127,127,127,127,128,128,128,128,128,127,127,127,128,128,128,128,128,127,126,126,126,126,126,126,125,125,125,125,125,125,126,125,125,126,126,126,127,127,127,127,127,127,128,127,127,127,127,126,128,128,127,128,128,127,128,128,128,128,128,128,128,128,128,128,127,127,127,127,127,127,127,127,127,127,127,126,126,127,127,127,128,128,128,128,128,127,127,127,127,127,127,127,127,127,126,126,126,126,127,128,129,128,128,127,127,127,128,127,128,128,128,128,129,128,127,127,127,127,126,126,126,126,126,127,127,127,126,126,126,126,128,129,130,132,134,133,132,129,124,119,116,116,116,118,121,124,127,129,131,133,132,132,131,130,129,128,128,128,127,128,128,128,127,128,127,127,127,127,127,127,127,127,128,128,128,128,129,128,127,128,128,128,128,128,128,128,128,128,128,127,127,127,127,128,129,128,129,128,127,127,127,126,127,126,125,124,125,124,124,124,125,124,124,125,125,124,124,125,126,127,128,128,127,127,127,127,127,127,128,127,127,128,128,127,127,127,127,127,128,128,128,128,127,128,128,128,128,129,128,127,127,127,127,126,127,127,127,127,128,127,128,127,127,128,127,126,127,127,126,127,127,128,128,127,127,127,126,126,127,127,127,128,127,127,126,127,126,127,127,127,127,127,128,127,127,128,128,127,128,129,129,129,127,127,126,126,126,127,127,126,126,126,126,126,127,127,127,128,129,130,132,133,135,133,131,127,123,120,119,118,118,119,121,124,127,131,132,132,131,130,129,129,129,129,129,129,128,128,128,128,128,128,128,\"}"
"data": "{\"type\":\"ecg\",\"data\":\"128,127,127,127,127,127,127,128,128,128,128,127,127,127,127,128,128,128,128,128,127,128,128,128,129,129,129,128,128,128,127,127,128,128,127,127,127,126,125,126,125,125,125,125,125,125,125,125,126,126,126,127,127,127,126,127,126,127,127,127,127,128,128,127,128,127,128,127,127,127,129,128,128,128,128,127,128,128,128,127,127,127,127,127,128,128,128,127,127,127,127,126,127,127,127,127,128,128,127,126,127,127,126,128,128,128,128,127,126,126,126,127,127,127,127,127,127,126,127,127,128,128,128,128,128,128,128,128,129,129,129,129,128,127,127,125,126,126,126,127,127,126,126,125,126,126,126,126,127,127,128,130,132,134,135,133,131,128,124,120,118,117,117,118,120,124,127,130,131,131,130,129,128,129,129,129,128,128,127,127,127,127,127,127,127,128,128,127,127,127,127,127,128,128,128,128,128,128,127,128,129,128,128,128,128,128,127,128,128,128,128,129,129,128,128,128,127,127,128,128,127,126,125,125,125,124,124,124,124,124,125,125,126,126,126,127,127,127,127,127,126,126,126,127,127,127,127,127,127,127,128,127,127,127,127,128,128,128,128,128,127,127,127,128,128,128,128,129,129,127,127,127,126,126,127,127,127,127,127,127,127,127,126,127,127,127,127,127,127,128,128,127,127,127,126,126,127,127,127,127,127,127,127,127,128,128,128,128,128,127,128,128,128,128,128,128,127,128,127,128,126,127,126,126,126,126,126,126,127,126,126,127,127,127,127,128,130,131,132,134,133,130,128,125,120,117,116,117,117,121,124,127,130,132,133,132,131,130,130,129,128,129,128,128,127,127,127,126,126,127,128,128,128,128,128,127,127,127,127,128,128,127,128,128,128,127,128,129,129,128,127,127,127,126,127,128,128,128,128,128,128,127,127,127,127,127,127,126,126,126,125,125,126,125,125,125,125,124,125,125,125,126,127,127,126,127,128,128,128,129,128,127,127,127,127,127,127,127,127,127,127,127,127,127,128,127,127,127,127,127,128,128,128,128,128,127,127,127,128,128,127,127,128,126,127,127,127,127,128,128,128,128,128,127,127,128,127,127,127,127,127,127,128,128,128,128,129,128,127,127,127,127,127,128,128,129,127,127,126,125,125,125,126,127,126,127,127,125,124,126,126,125,127,128,129,130,132,134,134,133,131,127,121,119,118,118,118,121,122,125,127,130,132,132,132,131,130,130,130,129,128,128,127,128,127,127,127,127,126,127,127,128,128,128,128,127,126,126,127,127,128,128,128,129,128,128,127,127,127,127,128,127,127,127,128,127,128,129,128,128,128,128,128,128,127,127,127,127,126,125,125,124,123,125,124,125,125,125,125,126,126,126,126,127,127,127,128,128,128,128,128,128,128,128,129,128,127,127,126,126,127,127,127,128,127,128,127,128,127,128,128,128,128,129,128,128,127,127,127,127,128,128,127,126,127,127,127,127,128,127,126,127,127,127,128,128,127,127,126,127,127,127,127,127,127,127,127,128,128,127,127,128,127,128,128,128,127,127,127,126,125,125,126,125,126,127,127,127,127,127,127,126,127,127,128,129,130,130,132,134,133,132,130,127,122,119,117,117,117,120,124,127,130,131,132,131,131,130,129,129,129,129,128,128,127,126,125,126,126,126,127,127,126,127,127,127,127,128,127,128,128,128,128,129,128,128,128,128,128,128,128,129,128,128,128,128,128,129,129,129,129,129,129,128,127,127,126,126,126,126,125,125,124,123,124,125,125,125,126,125,126,126,126,126,126,126,126,127,127,127,127,127,127,127,128,127,127,127,127,128,129,129,128,128,128,128,128,127,128,127,127,128,128,127,128,128,128,128,128,128,127,127,127,127,127,128,128,127,127,126,126,126,127,127,127,127,126,126,126,127,126,126,127,127,127,128,128,127,127,127,126,127,128,127,128,128,128,128,128,127,127,126,126,126,126,126,126,126,126,125,125,125,126,127,128,128,129,130,131,134,136,136,133,131,126,120,117,116,116,118,121,124,127,129,130,130,130,130,129,130,130,129,129,129,127,128,128,128,127,127,126,126,126,127,127,127,127,127,127,128,127,127,128,128,128,128,129,128,129,128,128,127,127,127,128,128,128,128,128,128,128,128,128,128,128,127,127,126,126,126,125,125,125,124,125,124,124,124,125,124,126,126,127,126,127,127,127,126,127,127,127,128,128,128,128,127,127,127,127,127,127,126,126,126,126,127,128,128,129,128,127,127,127,126,127,128,128,128,128,128,\"}"
"data": "{\"type\":\"ecg\",\"data\":\"128,127,127,127,125,125,125,126,126,127,127,127,127,127,126,127,127,127,127,128,127,127,127,126,126,126,126,126,126,127,127,127,127,127,127,127,127,127,127,127,128,128,128,129,129,127,126,126,125,124,126,127,127,127,127,125,125,126,126,127,128,129,130,131,132,133,135,133,131,128,122,117,116,116,117,119,122,125,127,130,131,132,131,130,130,129,129,129,129,128,128,128,127,127,127,127,127,127,128,128,128,128,127,127,127,127,127,128,127,127,128,128,128,129,128,127,127,127,127,128,128,128,128,128,128,128,128,129,129,129,128,128,127,126,125,125,125,125,125,125,125,125,124,125,125,124,125,126,126,126,126,127,126,127,128,128,127,128,128,127,128,129,128,128,128,127,126,127,127,128,128,128,128,129,128,128,128,127,127,127,128,127,127,127,127,126,127,127,128,128,127,127,126,126,126,126,127,127,127,127,128,127,127,127,127,127,127,128,128,127,127,128,128,127,127,127,127,128,128,129,128,128,128,127,126,126,125,125,125,126,126,126,126,126,125,125,126,127,128,128,129,129,131,133,134,132,130,126,122,119,118,118,119,120,123,126,128,130,132,132,132,131,130,130,130,129,128,128,128,127,127,127,127,128,127,127,126,127,126,127,127,128,127,128,128,128,128,129,128,128,128,127,127,127,128,127,127,128,127,127,128,127,128,128,128,128,129,128,128,128,127,126,126,125,126,125,125,125,125,124,124,124,125,125,126,126,126,126,126,127,127,127,127,128,128,128,128,128,127,127,126,126,127,127,128,128,128,128,128,128,128,128,129,128,128,128,128,127,127,127,127,127,127,128,127,126,127,127,127,127,127,127,127,126,126,126,127,127,127,127,128,128,127,128,128,127,127,128,128,127,127,126,126,126,127,127,128,128,128,127,127,127,127,128,128,129,129,128,128,127,127,127,126,125,126,126,127,126,126,126,125,124,126,126,126,127,128,128,129,130,132,134,134,133,131,127,122,119,118,118,119,120,124,126,128,130,131,130,129,130,129,129,129,128,127,128,128,128,127,128,127,127,127,127,128,128,127,128,128,127,127,127,127,126,126,128,128,128,128,128,127,128,128,128,129,129,128,128,128,128,128,128,128,127,128,128,128,128,127,126,126,125,125,126,126,125,124,124,124,125,125,126,126,127,127,127,127,127,128,127,128,129,127,127,127,127,125,127,127,127,127,128,128,128,128,128,129,128,128,127,127,126,127,127,127,127,127,127,127,127,127,127,127,127,127,127,127,127,127,127,127,127,127,127,127,128,128,128,128,128,127,128,127,127,126,126,126,127,126,127,126,126,127,127,127,128,127,127,128,128,127,128,128,128,129,129,129,127,127,126,126,125,125,125,126,126,126,127,127,127,127,127,127,127,128,129,131,131,134,135,133,131,128,125,121,118,117,117,118,121,124,127,130,131,132,131,131,130,129,128,128,127,127,127,128,127,127,127,127,127,128,128,128,128,128,128,127,127,126,126,127,128,128,129,129,129,128,128,128,128,128,128,128,127,127,127,127,128,128,127,128,127,127,127,127,126,126,126,126,125,125,125,124,125,125,125,125,126,126,126,127,127,126,127,127,127,127,126,126,127,127,127,128,128,127,127,127,127,127,128,128,128,128,128,128,128,127,128,127,127,127,128,127,128,127,127,127,127,127,127,127,127,127,127,127,127,128,128,127,127,127,127,127,128,127,128,128,127,127,127,126,126,126,127,126,126,127,127,127,128,128,128,129,129,128,128,128,127,127,127,128,129,128,128,128,127,126,126,126,126,127,126,126,126,126,125,125,126,127,127,128,128,129,129,132,133,132,130,129,124,119,116,116,116,117,121,125,128,129,132,132,132,131,131,130,129,129,128,128,127,127,127,127,127,127,127,128,129,128,128,128,127,126,126,126,126,126,127,128,128,129,129,129,129,129,128,128,128,128,128,128,128,129,129,129,129,129,128,127,128,127,127,126,126,125,125,125,125,125,125,125,125,125,125,125,125,126,126,126,126,126,126,125,126,126,126,126,127,128,127,128,128,127,127,128,128,128,128,127,128,128,128,127,128,128,127,127,127,128,128,128,128,128,127,127,127,128,128,128,128,127,127,127,126,127,127,127,127,126,126,127,126,126,127,127,127,128,128,127,127,127,127,127,127,128,127,127,127,127,127,127,127,128,127,127,128,128,127,128,127,127,127,126,127,126,126,127,127,126,127,127,127,126,127,127,127,128,128,129,129,131,133,133,132,130,128,128,128,128,128,\"}"